Scan Count	Temperature [ITS-90, deg C]	Conductivity [S/m]	Depth [salt water, m]	Oxygen Saturation, Weiss [ml/l]	Salinity, Practical [PSU]
1	15.71361	-0.0000373	-0.1732	6.939822	0.00000
2	15.71361	-0.0000373	-0.1671	6.939822	0.00000
3	15.71302	-0.0000435	-0.1763	6.939909	0.00000
4	15.71223	-0.0000373	-0.1763	6.940026	0.00000
5	15.71171	-0.0000435	-0.1763	6.940104	0.00000
6	15.70980	-0.0000435	-0.1734	6.940387	0.00000
7	15.70777	-0.0000435	-0.1703	6.940689	0.00000
8	15.70594	-0.0000435	-0.1763	6.940962	0.00000
9	15.69460	-0.0000435	-0.1733	6.942648	0.00000
10	15.67815	-0.0000373	-0.1732	6.945095	0.00000
11	15.66236	-0.0000435	-0.1763	6.947445	0.00000
12	15.64332	-0.0000373	-0.1763	6.950283	0.00000
13	15.62081	-0.0000342	-0.1762	6.953638	0.00000
14	15.59767	-0.0000342	-0.1793	6.957092	0.00000
15	15.57891	-0.0000280	-0.1702	6.959892	0.00000
16	15.56304	-0.0000250	-0.1732	6.962264	0.00000
17	15.54653	-0.0000280	-0.1733	6.964733	0.00000
18	15.52911	-0.0000065	-0.1734	6.967339	0.00000
19	15.50713	0.0000028	-0.1763	6.970284	0.00813
20	15.48745	0.0000028	-0.1733	6.973234	0.00812
21	15.47312	0.0000213	-0.1702	6.975388	0.00798
22	15.46062	0.0000120	-0.1702	6.977262	0.00801
23	15.44871	0.0000120	-0.1763	6.979050	0.00801
24	15.43186	0.0000120	-0.1641	6.981581	0.00800
25	15.41352	0.0000028	-0.1763	6.984333	0.00809
26	15.39506	0.0000028	-0.1763	6.987109	0.00808
27	15.37629	0.0000120	-0.1732	6.989939	0.00797
28	15.36415	0.0000120	-0.1732	6.991767	0.00797
29	15.35616	0.0000028	-0.1702	6.992966	0.00806
30	15.35129	0.0000028	-0.1702	6.993700	0.00806
31	15.34922	0.0000028	-0.1732	6.994013	0.00805
32	15.35142	0.0000028	-0.1732	6.993680	0.00806
33	15.35356	0.0000028	-0.1702	6.993357	0.00806
34	15.33164	0.0000028	-0.1732	6.996663	0.00805
35	15.30739	0.0000028	-0.1702	7.000322	0.00803
36	15.30628	0.0000028	-0.1702	7.000488	0.00803
37	15.31717	0.0000028	-0.1732	6.998845	0.00804
38	15.32937	-0.0000034	-0.1732	6.997349	0.00000
39	15.33987	0.0000028	-0.1702	6.995421	0.00805
40	15.34948	-0.0000034	-0.1702	6.994318	0.00000
41	15.35778	0.0000028	-0.1640	6.992722	0.00806
42	15.35967	-0.0000065	-0.1732	6.992782	0.00000
43	15.34844	0.0000028	-0.1701	6.994130	0.00805
44	15.33345	0.0000028	-0.1732	6.996389	0.00805
45	15.30726	0.3372938	-0.1186	6.906778	2.21027
46	15.03165	0.9012057	-0.0006	6.773683	6.35695
47	14.64989	1.5605228	0.0993	6.612363	11.61659
48	14.39376	1.6595453	0.1539	6.612508	12.50101
49	14.23617	1.6842590	0.1993	6.624434	12.75502
50	14.14066	1.6868530	0.2448	6.635823	12.80783
51	14.08377	1.6898665	0.3175	6.642125	12.85153
52	14.05048	1.6873913	0.4294	6.647253	12.84207
53	14.03423	1.6765218	0.4961	6.653039	12.75752
54	14.02716	1.6744549	0.5567	6.654654	12.74274
55	14.03079	1.6704970	0.5566	6.655529	12.70882
56	14.03773	1.6747827	0.5415	6.653178	12.74198
57	14.04636	1.6801260	0.5445	6.650251	12.78332
58	14.05124	1.6810808	0.5507	6.649297	12.78961
59	14.05211	1.6815981	0.5295	6.649009	12.79360
60	14.04848	1.6840809	0.5113	6.648635	12.81534
61	14.04123	1.6873017	0.5023	6.648478	12.84439
62	14.03085	1.6907437	0.5083	6.648648	12.87632
63	14.02273	1.6879094	0.5265	6.650659	12.85555
64	14.02448	1.6773072	0.5416	6.654033	12.76722
65	14.02373	1.6856389	0.5174	6.651301	12.83642
66	14.01923	1.6931809	0.4870	6.649320	12.90037
67	14.01110	1.6982729	0.4841	6.648637	12.94527
68	14.00885	1.6965268	0.5052	6.649521	12.93155
69	14.01154	1.6885868	0.5387	6.651873	12.86487
70	14.01085	1.6902306	0.5448	6.651403	12.87872
71	14.00611	1.6984725	0.5386	6.649214	12.94859
72	13.99948	1.6999746	0.5174	6.649557	12.96326
73	13.99162	1.7016220	0.5205	6.650011	12.97956
74	13.99124	1.7021662	0.5567	6.649874	12.98419
75	13.99536	1.6945421	0.5992	6.651936	12.91959
76	13.99792	1.6905097	0.5902	6.652977	12.88532
77	13.99849	1.6986522	0.5447	6.650135	12.95263
78	14.00242	1.7026905	0.5418	6.648255	12.98479
79	13.99824	1.7026505	0.5841	6.648808	12.98585
80	13.99505	1.7023659	0.6295	6.649316	12.98455
81	13.99530	1.6979087	0.6446	6.650800	12.94751
82	13.99461	1.6975695	0.6235	6.651003	12.94493
83	13.99093	1.7032748	0.5962	6.649537	12.99348
84	13.98693	1.7040390	0.5902	6.649793	13.00116
85	13.98431	1.7047034	0.6326	6.649905	13.00755
86	13.98506	1.7042188	0.6690	6.649973	13.00327
87	13.98731	1.7017618	0.6901	6.650520	12.98213
88	13.98556	1.7013025	0.6751	6.650901	12.97891
89	13.98188	1.7052879	0.6448	6.650020	13.01321
90	13.97876	1.7068968	0.6205	6.649874	13.02762
91	13.97489	1.7081263	0.6477	6.649954	13.03912
92	13.97551	1.7085912	0.6750	6.649716	13.04276
93	13.97925	1.7060923	0.6902	6.650084	13.02076
94	13.98194	1.7058075	0.6811	6.649835	13.01750
95	13.97969	1.7095611	0.6781	6.648847	13.04940
96	13.97626	1.7105112	0.6842	6.648966	13.05845
97	13.97295	1.7109513	0.6902	6.649242	13.06322
98	13.97189	1.7110963	0.6993	6.649329	13.06478
99	13.97251	1.7110463	0.7084	6.649266	13.06415
100	13.97251	1.7110563	0.7144	6.649263	13.06423
101	13.97382	1.7108712	0.6993	6.649157	13.06226
102	13.97919	1.7105111	0.6903	6.648588	13.05746
103	13.98700	1.7101461	0.6964	6.647707	13.05179
104	13.99155	1.7079463	0.7175	6.647869	13.03200
105	13.99105	1.7040390	0.7327	6.649262	12.99975
106	14.00436	1.7023210	0.7356	6.648132	12.98104
107	14.02954	1.7029300	0.7236	6.644682	12.97765
108	14.04217	1.7037340	0.7115	6.642783	12.98008
109	14.04980	1.7030098	0.7176	6.642047	12.97153
110	14.05361	1.7025504	0.7145	6.641712	12.96645
111	14.05436	1.7025504	0.7267	6.641616	12.96619
112	14.05449	1.7022108	0.7327	6.641715	12.96334
113	14.05424	1.7014419	0.7388	6.642008	12.95706
114	14.05655	1.7009427	0.7299	6.641879	12.95215
115	14.05699	1.7004186	0.7237	6.642000	12.94767
116	14.05630	1.6998146	0.7178	6.642294	12.94290
117	14.05812	1.6993305	0.7177	6.642224	12.93828
118	14.05999	1.6989113	0.7236	6.642125	12.93419
119	14.06006	1.6983125	0.7358	6.642320	12.92921
120	14.06162	1.6970653	0.7327	6.642541	12.91836
121	14.06813	1.6957435	0.7238	6.642152	12.90526
122	14.07144	1.6954442	0.7207	6.641826	12.90168
123	14.06775	1.6955689	0.7360	6.642259	12.90394
124	14.06275	1.6957235	0.7420	6.642851	12.90688
125	14.06456	1.6932006	0.7420	6.643473	12.88541
126	14.07194	1.6916804	0.7389	6.643037	12.87038
127	14.08221	1.6911022	0.7299	6.641911	12.86219
128	14.08359	1.6908979	0.7390	6.641803	12.86004
129	14.07989	1.6906837	0.7482	6.642351	12.85950
130	14.07783	1.6897819	0.7572	6.642922	12.85272
131	14.07989	1.6873115	0.7511	6.643493	12.83162
132	14.08259	1.6861066	0.7541	6.643554	12.82076
133	14.08628	1.6862509	0.7511	6.643029	12.82074
134	14.08885	1.6877497	0.7512	6.642191	12.83227
135	14.08903	1.6916803	0.7510	6.640837	12.86470
136	14.09047	1.6948457	0.7421	6.639580	12.89040
137	14.09354	1.6970701	0.7513	6.638433	12.90777
138	14.06606	1.6970453	0.7572	6.641977	12.91671
139	14.00248	1.6962675	0.7482	6.650432	12.93149
140	13.96833	1.6945622	0.7300	6.655420	12.92876
141	13.95336	1.6964074	0.7149	6.656725	12.94908
142	13.93153	1.7222807	0.7240	6.650714	13.17139
143	13.86571	1.8173680	0.7453	6.626616	13.98831
144	13.73869	1.8769528	0.7573	6.622257	14.53625
145	13.61984	1.8060038	0.7573	6.662000	13.98202
146	13.56637	1.7456604	0.7482	6.689891	13.49317
147	13.51088	1.7139904	0.7391	6.708160	13.24626
148	13.52610	1.7032774	0.7331	6.709906	13.15105
149	13.59939	1.7352775	0.7241	6.689211	13.39439
150	13.65935	1.8004004	0.7363	6.658865	13.92051
151	13.66016	1.8748163	0.7484	6.632968	14.54786
152	13.61045	1.9335761	0.7666	6.618864	15.06485
153	13.52807	1.9324950	0.7605	6.629658	15.08798
154	13.47245	1.8682210	0.7544	6.659216	14.56308
155	13.46408	1.8924310	0.7241	6.651806	14.77202
156	13.44637	1.9750737	0.6970	6.625081	15.48372
157	13.39677	2.0905408	0.7030	6.590725	16.49543
158	13.30875	2.1312943	0.7302	6.587270	16.88571
159	13.24332	2.1416321	0.7636	6.591714	17.00427
160	13.19999	2.0536390	0.7757	6.628363	16.26123
161	13.18069	1.9160488	0.7606	6.679734	15.08427
162	13.15915	1.8427669	0.7455	6.708587	14.46501
163	13.17880	1.8832224	0.7001	6.691652	14.80363
164	13.22767	2.0549704	0.7032	6.624412	16.26096
165	13.24754	2.1305482	0.7243	6.595121	16.90630
166	13.20653	2.1609382	0.7546	6.589413	17.18838
167	13.14549	2.1016307	0.7849	6.618110	16.70038
168	13.11056	1.9545106	0.7759	6.675013	15.44299
169	13.09332	1.8770701	0.7426	6.704887	14.78402
170	13.17966	1.8750612	0.7244	6.694444	14.73342
171	13.32426	1.9119481	0.7304	6.662801	14.99270
172	13.43757	2.0030021	0.7396	6.616389	15.72628
173	13.49295	2.0150980	0.7517	6.605201	15.80708
174	13.52184	1.9520714	0.7638	6.623607	15.25715
175	13.52807	1.9152586	0.7579	6.635678	14.94136
176	13.54656	1.9135687	0.7366	6.633920	14.91981
177	13.59884	1.9213630	0.7184	6.624580	14.96569
178	13.63900	1.9471797	0.7125	6.610536	15.16917
179	13.66350	1.9826596	0.7305	6.595148	15.46096
180	13.67538	1.9936277	0.7397	6.589859	15.54947
181	13.67816	1.9635263	0.7489	6.599944	15.29249
182	13.67928	1.9470387	0.7428	6.605517	15.15210
183	13.67965	1.9428132	0.7397	6.606934	15.11611
184	13.68243	1.9469292	0.7428	6.605158	15.14993
185	13.68757	1.9498381	0.7550	6.603504	15.17259
186	13.69129	1.9437976	0.7519	6.605129	15.11989
187	13.69445	1.9454856	0.7459	6.604148	15.13297
188	13.69729	1.9429069	0.7338	6.604682	15.10998
189	13.70213	1.9478621	0.7369	6.602360	15.15010
190	13.70473	1.9543242	0.7460	6.599797	15.20388
191	13.70683	1.9541833	0.7580	6.599581	15.20185
192	13.70733	1.9475649	0.7611	6.601809	15.14553
193	13.70881	1.9406051	0.7368	6.604030	15.08596
194	13.71662	1.9425578	0.7249	6.602373	15.09945
195	13.73131	1.9475439	0.7217	6.598804	15.13593
196	13.73968	1.9563282	0.7339	6.594719	15.20707
197	13.73590	1.9581347	0.7491	6.594569	15.22388
198	13.70733	1.9503804	0.7522	6.600835	15.16940
199	13.69184	1.9446936	0.7432	6.604749	15.12727
200	13.69723	1.9426100	0.7370	6.604793	15.10749
201	13.71606	1.9460847	0.7311	6.601223	15.12955
202	13.72964	1.9517989	0.7371	6.597543	15.17264
203	13.73584	1.9534891	0.7492	6.596182	15.18453
204	13.73460	1.9482059	0.7493	6.598163	15.14025
205	13.73379	1.9425785	0.7372	6.600208	15.09289
206	13.73677	1.9416775	0.7281	6.600145	15.08410
207	13.74693	1.9464233	0.7372	6.597229	15.12030
208	13.75326	1.9491077	0.7524	6.595509	15.14055
209	13.75369	1.9470851	0.7645	6.596153	15.12325
210	13.75419	1.9408912	0.7615	6.598228	15.07062
211	13.75841	1.9379449	0.7403	6.598715	15.04404
212	13.76865	1.9398186	0.7252	6.596783	15.05590
213	13.77324	1.9445264	0.7252	6.594583	15.09394
214	13.77436	1.9467931	0.7313	6.593662	15.11268
215	13.77299	1.9477782	0.7434	6.593493	15.12155
216	13.77020	1.9443701	0.7465	6.595019	15.09380
217	13.77038	1.9416773	0.7465	6.595924	15.07094
218	13.77169	1.9396728	0.7466	6.596452	15.05348
219	13.77311	1.9370706	0.7405	6.597170	15.03091
220	13.77684	1.9358948	0.7345	6.597107	15.01951
221	13.78118	1.9382831	0.7345	6.595739	15.03802
222	13.78559	1.9421355	0.7345	6.593858	15.06888
223	13.78739	1.9435574	0.7436	6.593142	15.08020
224	13.78739	1.9436824	0.7618	6.593099	15.08125
225	13.78752	1.9414846	0.7559	6.593841	15.06262
226	13.78901	1.9369664	0.7527	6.595211	15.02383
227	13.79112	1.9346203	0.7376	6.595754	15.00318
228	13.79385	1.9339649	0.7317	6.595636	14.99658
229	13.79894	1.9387513	0.7256	6.593349	15.03505
230	13.80031	1.9430885	0.7286	6.591684	15.07119
231	13.79907	1.9462405	0.7468	6.590755	15.09833
232	13.79720	1.9464073	0.7771	6.590931	15.10046
233	13.79702	1.9405837	0.7711	6.592960	15.05129
234	13.79770	1.9350259	0.7530	6.594788	15.00404
235	13.79714	1.9298631	0.7318	6.596635	14.96063
236	13.80459	1.9307674	0.7198	6.595388	14.96538
237	13.80950	1.9387825	0.7197	6.592014	15.03120
238	13.80963	1.9459799	0.7319	6.589521	15.09199
239	13.80546	1.9494880	0.7591	6.588835	15.12328
240	13.77640	1.9467723	0.7834	6.593412	15.11169
241	13.74501	1.9333984	0.7805	6.601969	15.01078
242	13.73788	1.9044894	0.7533	6.612850	14.76907
243	13.74588	1.8932969	0.7321	6.615703	14.67148
244	13.76263	1.9160555	0.7170	6.605736	14.85730
245	13.77100	1.9349637	0.7200	6.598161	15.01391
246	13.77206	1.9455737	0.7261	6.594370	15.10326
247	13.75128	1.9478878	0.7443	6.596179	15.13100
248	13.70466	1.9451885	0.7715	6.602966	15.12643
249	13.67117	1.9292039	0.7685	6.612719	15.00403
250	13.66517	1.9184416	0.7625	6.617208	14.91515
251	13.66164	1.9163621	0.7473	6.618374	14.89890
252	13.66220	1.9158021	0.7414	6.618498	14.89394
253	13.66727	1.9134176	0.7353	6.618683	14.87178
254	13.67135	1.9136767	0.7293	6.618077	14.87239
255	13.67284	1.9219957	0.7293	6.615006	14.94229
256	13.66746	1.9366446	0.7415	6.610608	15.06857
257	13.65669	1.9467209	0.7626	6.608469	15.15830
258	13.64853	1.9467939	0.7869	6.609472	15.16213
259	13.63696	1.9279363	0.7839	6.617476	15.00661
260	13.63449	1.9042416	0.7628	6.626016	14.80667
261	13.64964	1.8904731	0.7356	6.628874	14.68428
262	13.68763	1.8900960	0.7083	6.624185	14.66661
263	13.71786	1.9167195	0.7023	6.611151	14.88019
264	13.73075	1.9407195	0.7176	6.601232	15.07834
265	13.72145	1.9505628	0.7570	6.598998	15.16539
266	13.67841	1.9470491	0.8023	6.605623	15.15252
267	13.63703	1.9133245	0.8024	6.622542	14.88267
268	13.60773	1.8910774	0.7692	6.633986	14.70540
269	13.62231	1.8917433	0.7147	6.631902	14.70548
270	13.65849	1.9263986	0.6965	6.615292	14.98520
271	13.67519	1.9422247	0.7087	6.607699	15.11288
272	13.66214	1.9508031	0.7631	6.606368	15.19080
273	13.61521	1.9540899	0.8055	6.611132	15.23728
274	13.58019	1.9219703	0.8146	6.626729	14.97809
275	13.55976	1.9047647	0.7875	6.635315	14.83991
276	13.56581	1.9058567	0.7331	6.634166	14.84686
277	13.60446	1.9248825	0.7087	6.622644	14.99338
278	13.62800	1.9449493	0.7178	6.612697	15.15456
279	13.63128	1.9507250	0.7270	6.610278	15.20234
280	13.62534	1.9520499	0.7664	6.610565	15.21593
281	13.61323	1.9424543	0.7726	6.615426	15.13917
282	13.60792	1.9286899	0.7635	6.620883	15.02435
283	13.60106	1.9242075	0.7454	6.623309	14.98897
284	13.60483	1.9221414	0.7303	6.623551	14.96997
285	13.61465	1.9247059	0.7303	6.621417	14.98791
286	13.62429	1.9304930	0.7333	6.618188	15.03326
287	13.62924	1.9330143	0.7394	6.616687	15.05273
288	13.63171	1.9331495	0.7394	6.616328	15.05291
289	13.63295	1.9367177	0.7516	6.614933	15.08271
290	13.63140	1.9384557	0.7667	6.614524	15.09807
291	13.62615	1.9365096	0.7728	6.615863	15.08361
292	13.62231	1.9290067	0.7699	6.618954	15.02141
293	13.62293	1.9218818	0.7639	6.621352	14.96071
294	13.62738	1.9207246	0.7517	6.621191	14.94917
295	13.63789	1.9245240	0.7487	6.618543	14.97731
296	13.64457	1.9308152	0.7548	6.615516	15.02807
297	13.64543	1.9338983	0.7640	6.614337	15.05389
298	13.64395	1.9318548	0.7761	6.615233	15.03713
299	13.64407	1.9255158	0.7640	6.617418	14.98331
300	13.64599	1.9207659	0.7458	6.618824	14.94229
301	13.64816	1.9196037	0.7277	6.618954	14.93160
302	13.65669	1.9252768	0.7217	6.615907	14.97638
303	13.66189	1.9321302	0.7399	6.612875	15.03246
304	13.66368	1.9384764	0.7611	6.610448	15.08559
305	13.66275	1.9388303	0.7793	6.610443	15.08895
306	13.65935	1.9327074	0.7672	6.612995	15.03834
307	13.65960	1.9281648	0.7582	6.614539	14.99973
308	13.65824	1.9293911	0.7612	6.614285	15.01066
309	13.65490	1.9366655	0.7673	6.612183	15.07366
310	13.65106	1.9399027	0.7705	6.611544	15.10264
311	13.64704	1.9369413	0.7795	6.613078	15.07908
312	13.64500	1.9293652	0.7735	6.615965	15.01560
313	13.64401	1.9261026	0.7675	6.617222	14.98831
314	13.64513	1.9246382	0.7675	6.617590	14.97546
315	13.65255	1.9240462	0.7554	6.616858	14.96755
316	13.66115	1.9240047	0.7554	6.615787	14.96386
317	13.66715	1.9266946	0.7555	6.614096	14.98432
318	13.66900	1.9295677	0.7616	6.612866	15.00796
319	13.66795	1.9272452	0.7646	6.613804	14.98868
320	13.66851	1.9213418	0.7555	6.615780	14.93843
321	13.67148	1.9164346	0.7527	6.617106	14.89570
322	13.68095	1.9145630	0.7405	6.616558	14.87619
323	13.70163	1.9140912	0.7344	6.614109	14.86421
324	13.71836	1.9139926	0.7437	6.612031	14.85692
325	13.72809	1.9142258	0.7526	6.610723	14.85514
326	13.73360	1.9141998	0.7588	6.610036	14.85279
327	13.73726	1.9136401	0.7650	6.609768	14.84665
328	13.74197	1.9134638	0.7648	6.609234	14.84334
329	13.74179	1.9129663	0.7680	6.609430	14.83921
330	13.74080	1.9119041	0.7651	6.609922	14.83061
331	13.74154	1.9099563	0.7621	6.610500	14.81386
332	13.74272	1.9062541	0.7590	6.611630	14.78212
333	13.74507	1.9030613	0.7499	6.612435	14.75425
334	13.74979	1.9007596	0.7529	6.612634	14.73300
335	13.75481	1.9000304	0.7590	6.612251	14.72492
336	13.75822	1.8979521	0.7621	6.612537	14.70607
337	13.75928	1.8831982	0.7742	6.617493	14.58116
338	13.76064	1.8466250	0.7622	6.629933	14.27248
339	13.77169	1.7986214	0.7289	6.645067	13.86506
340	13.78156	1.7842772	0.7109	6.648742	13.74125
341	13.78454	1.8476701	0.7200	6.626533	14.27244
342	13.78696	1.8699472	0.7502	6.618554	14.45905
343	13.76641	1.8729214	0.7685	6.620133	14.49182
344	13.68844	1.8641636	0.7806	6.633061	14.44722
345	13.63746	1.8449557	0.7746	6.646220	14.30411
346	13.62435	1.8274453	0.7655	6.653976	14.16117
347	13.60446	1.8244387	0.7504	6.657571	14.14312
348	13.59377	1.8367106	0.7444	6.654674	14.25069
349	13.60063	1.8598953	0.7414	6.645734	14.44413
350	13.59371	1.8893688	0.7536	6.636362	14.69629
351	13.48384	1.9692376	0.7657	6.622400	15.41876
352	13.30373	1.9672929	0.7717	6.645868	15.47471
353	13.18704	1.8906618	0.7718	6.687945	14.86414
354	13.11086	1.8678478	0.7567	6.705909	14.69815
355	13.02384	1.9001642	0.7386	6.705607	15.00964
356	12.96851	1.9976047	0.7386	6.677716	15.87378
357	12.91363	2.1141434	0.7355	6.642675	16.91165
358	12.81529	2.2071767	0.7569	6.621303	17.77248
359	12.69534	2.2391462	0.7629	6.624563	18.11138
360	12.61646	2.1499217	0.7691	6.667063	17.36004
361	12.58990	2.0327728	0.7599	6.713413	16.34118
362	12.55641	1.9998416	0.7630	6.729827	16.06678
363	12.52959	1.9747340	0.7570	6.742538	15.85813
364	12.57453	2.0156786	0.7480	6.721667	16.19787
365	12.60733	2.1248195	0.7540	6.677420	17.14285
366	12.60120	2.2544757	0.7661	6.630637	18.29249
367	12.58804	2.2970403	0.7784	6.616650	18.67721
368	12.55274	2.2416877	0.7905	6.641358	18.20233
369	12.54099	2.1103868	0.7724	6.691139	17.04558
370	12.53661	2.0893514	0.7633	6.699438	16.86207
371	12.51628	2.2049506	0.7482	6.659436	17.89365
372	12.50208	2.3055825	0.7391	6.624117	18.79597
373	12.46932	2.3584139	0.7452	6.608660	19.28476
374	12.42600	2.3847936	0.7574	6.604213	19.54358
375	12.39893	2.3928215	0.7604	6.604550	19.62976
376	12.38847	2.3612292	0.7664	6.617539	19.35141
377	12.39481	2.2594177	0.7725	6.654501	18.43687
378	12.40102	2.1846456	0.7575	6.681441	17.76777
379	12.39391	2.1723783	0.7334	6.686888	17.66208
380	12.41285	2.3016446	0.7182	6.636609	18.80526
381	12.42989	2.3950911	0.7242	6.599929	19.63404
382	12.42547	2.4093086	0.7516	6.595210	19.76409
383	12.39923	2.4128342	0.7729	6.597100	19.80956
384	12.35611	2.3505055	0.7942	6.625498	19.27172
385	12.33666	2.2053595	0.7941	6.681868	17.98270
386	12.32062	2.0782918	0.7669	6.731199	16.86089
387	12.36304	2.0518147	0.7427	6.735583	16.60782
388	12.48243	2.1468473	0.7276	6.685130	17.39450
389	12.57429	2.2833221	0.7307	6.623384	18.56194
390	12.58618	2.3758317	0.7457	6.587968	19.38074
391	12.53589	2.3863562	0.7640	6.590228	19.50074
392	12.47112	2.3068464	0.7793	6.627477	18.82267
393	12.43755	2.2114095	0.7671	6.666931	17.98844
394	12.40311	2.1979242	0.7520	6.676255	17.88487
395	12.39863	2.2270550	0.7399	6.666020	18.14638
396	12.41602	2.2967881	0.7369	6.638015	18.76025
397	12.41375	2.3622862	0.7461	6.614044	19.34793
398	12.40180	2.3826948	0.7461	6.607951	19.53729
399	12.37892	2.3733915	0.7582	6.614201	19.46555
400	12.36841	2.3172693	0.7583	6.636320	18.96738
401	12.37122	2.2744264	0.7493	6.651874	18.58254
402	12.35904	2.2894692	0.7463	6.647804	18.72313
403	12.34329	2.3682491	0.7494	6.620484	19.43774
404	12.33171	2.3806919	0.7584	6.617279	19.55564
405	12.32134	2.3251454	0.7584	6.639218	19.06178
406	12.31556	2.2696726	0.7463	6.660584	18.56747
407	12.31287	2.2679935	0.7373	6.661544	18.55377
408	12.33523	2.3297290	0.7434	6.635794	19.09588
409	12.35420	2.3887091	0.7464	6.611545	19.61608
410	12.36256	2.4103850	0.7616	6.602477	19.80680
411	12.35373	2.3868100	0.7678	6.612309	19.59924
412	12.35576	2.3420118	0.7769	6.628696	19.19567
413	12.36017	2.3094802	0.7557	6.640232	18.90174
414	12.35068	2.3007408	0.7435	6.644655	18.82821
415	12.34251	2.3023345	0.7376	6.645077	18.84657
