Scan Count	Temperature [ITS-90, deg C]	Conductivity [S/m]	Depth [salt water, m]	Oxygen Saturation, Weiss [ml/l]	Salinity, Practical [PSU]
1	14.77319	-0.0000065	-0.0914	7.082127	0.00000
2	14.76757	-0.0000034	-0.0852	7.082992	0.00000
3	14.76381	-0.0000065	-0.0913	7.083573	0.00000
4	14.75915	-0.0000034	-0.0914	7.084291	0.00000
5	14.75264	-0.0000065	-0.0914	7.085294	0.00000
6	14.74671	-0.0000157	-0.0914	7.086209	0.00000
7	14.74186	-0.0000126	-0.0914	7.086957	0.00000
8	14.73708	-0.0000065	-0.0913	7.087694	0.00000
9	14.73274	-0.0000157	-0.0914	7.088363	0.00000
10	14.73096	-0.0000219	-0.0975	7.088639	0.00000
11	14.73013	-0.0000065	-0.0914	7.088767	0.00000
12	14.72860	-0.0000126	-0.0885	7.089003	0.00000
13	14.72503	-0.0000157	-0.0854	7.089554	0.00000
14	14.71955	-0.0000157	-0.0855	7.090400	0.00000
15	14.71502	-0.0000126	-0.0824	7.091099	0.00000
16	14.71305	-0.0000065	-0.0945	7.091404	0.00000
17	14.71126	-0.0000126	-0.0885	7.091679	0.00000
18	14.70801	-0.0000157	-0.0885	7.092181	0.00000
19	14.70438	-0.0000157	-0.0914	7.092742	0.00000
20	14.70342	-0.0000219	-0.0915	7.092890	0.00000
21	14.70922	-0.0000157	-0.0855	7.091994	0.00000
22	14.72108	-0.0000219	-0.0915	7.090164	0.00000
23	14.73408	-0.0000157	-0.0885	7.088157	0.00000
24	14.74703	-0.0000157	-0.0885	7.086160	0.00000
25	14.75941	-0.0000219	-0.0885	7.084251	0.00000
26	14.77077	-0.0000157	-0.0915	7.082501	0.00000
27	14.77964	-0.0000126	-0.0885	7.081134	0.00000
28	14.78449	-0.0000157	-0.0854	7.080386	0.00000
29	14.78111	-0.0000157	-0.0885	7.080908	0.00000
30	14.76994	-0.0000126	-0.0854	7.082629	0.00000
31	14.76323	-0.0000157	-0.0854	7.083661	0.00000
32	14.76030	-0.0000250	-0.0855	7.084114	0.00000
33	14.75896	-0.0000219	-0.0854	7.084320	0.00000
34	14.75826	-0.0000250	-0.0945	7.084428	0.00000
35	14.75819	-0.0000126	-0.0855	7.084438	0.00000
36	14.75704	-0.0000157	-0.0855	7.084615	0.00000
37	14.75417	-0.0000250	-0.0824	7.085058	0.00000
38	14.75271	-0.0362677	-0.0038	7.085284	0.00000
39	14.67184	3.0372260	0.1417	6.123840	24.04410
40	14.56976	3.1322788	0.3021	6.103097	24.94096
41	14.50021	3.1521601	0.4384	6.103652	25.16071
42	14.45716	3.1562735	0.5625	6.106693	25.22484
43	14.43407	3.1649085	0.6958	6.106192	25.31607
44	14.42149	3.1526062	0.8138	6.111563	25.21553
45	14.41385	3.1513820	0.8654	6.112753	25.20967
46	14.41713	3.1629210	0.8562	6.108585	25.30949
47	14.43407	3.1656889	0.8473	6.105935	25.32291
48	14.44950	3.1598565	0.8412	6.106292	25.26136
49	14.45944	3.1544673	0.8442	6.107062	25.20734
50	14.46469	3.1555807	0.8472	6.106156	25.21376
51	14.46671	3.1534159	0.8502	6.106666	25.19334
52	14.46507	3.1435639	0.8472	6.110098	25.10750
53	14.45906	3.1458868	0.8473	6.109944	25.13187
54	14.44248	3.1572327	0.8504	6.107880	25.24275
55	14.42820	3.1659615	0.8534	6.106445	25.32915
56	14.41808	3.1712093	0.8412	6.105736	25.38214
57	14.41056	3.1779551	0.8382	6.104264	25.44672
58	14.40545	3.1834091	0.8412	6.102975	25.49833
59	14.40222	3.1854018	0.8473	6.102642	25.51807
60	14.40045	3.1865069	0.8503	6.102455	25.52902
61	14.40033	3.1858053	0.8473	6.102701	25.52289
62	14.39982	3.1871403	0.8533	6.102309	25.53504
63	14.39850	3.1903326	0.8563	6.101383	25.56417
64	14.39768	3.1919789	0.8564	6.100920	25.57928
65	14.39761	3.1917304	0.8563	6.101009	25.57712
66	14.39774	3.1903947	0.8534	6.101440	25.56522
67	14.39812	3.1911775	0.8533	6.101141	25.57190
68	14.39837	3.1928861	0.8504	6.100548	25.58686
69	14.39875	3.1937436	0.8533	6.100224	25.59420
70	14.39907	3.1941662	0.8533	6.100052	25.59774
71	14.39951	3.1934391	0.8504	6.100248	25.59101
72	14.39982	3.1933770	0.8565	6.100237	25.59025
73	14.40014	3.1941040	0.8655	6.099963	25.59647
74	14.40033	3.1946261	0.8564	6.099771	25.60097
75	14.40083	3.1935572	0.8534	6.100074	25.59118
76	14.40121	3.1937436	0.8504	6.099974	25.59258
77	14.40134	3.1949306	0.8564	6.099567	25.60300
78	14.40159	3.1958132	0.8534	6.099248	25.61065
79	14.40184	3.1946882	0.8534	6.099596	25.60052
80	14.40184	3.1946261	0.8443	6.099616	25.59998
81	14.40134	3.1964846	0.8504	6.099050	25.61676
82	14.40083	3.1977031	0.8504	6.098697	25.62789
83	14.40064	3.1984368	0.8473	6.098473	25.63451
84	14.40039	3.1989840	0.8565	6.098317	25.63952
85	14.40058	3.1980886	0.8595	6.098595	25.63147
86	14.40052	3.1965468	0.8535	6.099113	25.61786
87	14.40033	3.1956268	0.8565	6.099438	25.60983
88	14.39970	3.1961800	0.8564	6.099319	25.61515
89	14.39932	3.1974296	0.8564	6.098942	25.62646
90	14.39894	3.1982192	0.8533	6.098718	25.63371
91	14.39862	3.1988286	0.8565	6.098548	25.63931
92	14.39856	3.1993509	0.8533	6.098381	25.64398
93	14.39862	3.1994069	0.8563	6.098356	25.64443
94	14.39869	3.1987975	0.8534	6.098552	25.63900
95	14.39869	3.1987602	0.8595	6.098564	25.63866
96	14.39869	3.1991954	0.8534	6.098420	25.64252
97	14.39894	3.1987975	0.8444	6.098526	25.63883
98	14.39894	3.1968763	0.8444	6.099164	25.62182
99	14.39894	3.1968514	0.8444	6.099173	25.62160
100	14.39862	3.1975788	0.8504	6.098963	25.62825
101	14.39894	3.1969384	0.8505	6.099144	25.62237
102	14.39982	3.1948374	0.8594	6.099752	25.60318
103	14.40096	3.1933459	0.8534	6.100131	25.58922
104	14.40090	3.1925878	0.8624	6.100390	25.58255
105	14.40563	3.1896679	0.8535	6.100877	25.55359
106	14.41840	3.1861404	0.8504	6.100748	25.51398
107	14.44577	3.1887234	0.8473	6.097104	25.51884
108	14.47595	3.1912760	0.8414	6.093189	25.52159
109	14.50268	3.1921269	0.8474	6.090192	25.51157
110	14.52074	3.1929780	0.8565	6.088078	25.50723
111	14.53246	3.1937112	0.8655	6.086645	25.50601
112	14.53779	3.1920955	0.8595	6.086638	25.48827
113	14.53544	3.1905983	0.8535	6.087370	25.47660
114	14.53754	3.1907908	0.8534	6.087094	25.47693
115	14.54413	3.1907908	0.8595	6.086425	25.47261
116	14.54457	3.1913996	0.8597	6.086179	25.47769
117	14.54204	3.1921887	0.8595	6.086176	25.48631
118	14.53728	3.1920023	0.8535	6.086720	25.48778
119	14.53202	3.1921266	0.8414	6.087213	25.49233
120	14.53005	3.1921888	0.8473	6.087392	25.49416
121	14.52923	3.1923379	0.8536	6.087427	25.49602
122	14.52841	3.1935807	0.8566	6.087100	25.50752
123	14.52841	3.1924001	0.8444	6.087490	25.49711
124	14.52536	3.1922199	0.8444	6.087858	25.49751
125	14.52213	3.1925244	0.8475	6.088086	25.50232
126	14.52042	3.1923380	0.8445	6.088321	25.50180
127	14.51820	3.1926736	0.8505	6.088435	25.50621
128	14.51655	3.1919777	0.8475	6.088832	25.50115
129	14.51535	3.1903935	0.8535	6.089478	25.48795
130	14.51338	3.1890208	0.8507	6.090131	25.47713
131	14.51167	3.1873875	0.8597	6.090844	25.46383
132	14.51148	3.1856552	0.8535	6.091436	25.44867
133	14.51326	3.1826819	0.8535	6.092238	25.42127
134	14.51617	3.1808326	0.8475	6.092552	25.40305
135	14.51896	3.1796786	0.8446	6.092650	25.39105
136	14.52004	3.1774702	0.8506	6.093269	25.37087
137	14.52137	3.1740782	0.8536	6.094254	25.34008
138	14.52416	3.1715739	0.8596	6.094797	25.31618
139	14.52758	3.1691260	0.8536	6.095257	25.29238
140	14.53151	3.1664435	0.8507	6.095742	25.26618
141	14.53494	3.1633099	0.8535	6.096427	25.23635
142	14.53754	3.1593357	0.8566	6.097474	25.19965
143	14.54109	3.1569038	0.8536	6.097914	25.17593
144	14.54667	3.1504162	0.8415	6.099484	25.11520
145	14.55111	3.1449962	0.8445	6.100819	25.06463
146	14.55529	3.1409628	0.8475	6.101721	25.02645
147	14.55910	3.1344075	0.8535	6.103493	24.96634
148	14.56177	3.1222613	0.8536	6.107225	24.85785
149	14.56469	3.1175494	0.8506	6.108480	24.81458
150	14.56881	3.1128710	0.8475	6.109598	24.77086
151	14.57262	3.1109449	0.8445	6.109842	24.75152
152	14.57395	3.1110372	0.8507	6.109675	24.75148
153	14.57395	3.1035713	0.8537	6.112136	24.68593
154	14.57370	3.0943376	0.8566	6.115205	24.60504
155	14.57560	3.0945954	0.8536	6.114924	24.60610
156	14.57795	3.0976231	0.8506	6.113684	24.63119
157	14.57884	3.1039340	0.8538	6.111513	24.68601
158	14.57922	3.1034238	0.8597	6.111642	24.68129
159	14.57947	3.1018810	0.8568	6.112125	24.66759
160	14.57820	3.1024219	0.8597	6.112077	24.67314
161	14.57706	3.1046041	0.8507	6.111475	24.69302
162	14.57586	3.1065470	0.8508	6.110959	24.71084
163	14.57465	3.1034791	0.8507	6.112094	24.68468
164	14.57357	3.1030120	0.8508	6.112359	24.68126
165	14.57357	3.1038111	0.8477	6.112096	24.68827
166	14.57370	3.1038971	0.8536	6.112054	24.68895
167	14.57287	3.1054587	0.8537	6.111624	24.70318
168	14.57173	3.1054280	0.8569	6.111752	24.70364
169	14.57078	3.1055448	0.8568	6.111811	24.70526
170	14.57046	3.1069345	0.8538	6.111386	24.71767
171	14.57033	3.1110988	0.8567	6.110026	24.75432
172	14.56938	3.1069529	0.8537	6.111491	24.71852
173	14.56868	3.1036882	0.8537	6.112639	24.69029
174	14.56646	3.1034792	0.8477	6.112936	24.68987
175	14.56430	3.1076110	0.8508	6.111796	24.72752
176	14.56284	3.1147051	0.8537	6.109606	24.79076
177	14.56215	3.1086443	0.8508	6.111677	24.73797
178	14.56151	3.1012298	0.8508	6.114187	24.67325
179	14.55942	3.1004494	0.8477	6.114660	24.66773
180	14.55732	3.1013036	0.8508	6.114594	24.67655
181	14.55587	3.1066456	0.8569	6.112982	24.72440
182	14.55510	3.1002712	0.8478	6.115163	24.66890
183	14.55510	3.0939755	0.8447	6.117240	24.61362
184	14.55288	3.0928766	0.8477	6.117832	24.60537
185	14.55047	3.0953019	0.8537	6.117280	24.62819
186	14.54857	3.1025328	0.8569	6.115090	24.69290
187	14.54692	3.1113636	0.8508	6.112345	24.77154
188	14.54692	3.1112467	0.8508	6.112383	24.77051
189	14.54698	3.1086752	0.8508	6.113225	24.74787
190	14.54559	3.1063628	0.8540	6.114132	24.72844
191	14.54274	3.1083493	0.8599	6.113770	24.74771
192	14.54026	3.1094134	0.8538	6.113673	24.75863
193	14.53931	3.1076113	0.8538	6.114366	24.74340
194	14.53792	3.1087614	0.8477	6.114130	24.75440
195	14.53690	3.1103608	0.8508	6.113706	24.76910
196	14.53658	3.1110991	0.8510	6.113495	24.77579
197	14.53601	3.1126928	0.8630	6.113027	24.79016
198	14.53519	3.1217255	0.8752	6.110130	24.87011
199	14.53481	3.1233583	0.8720	6.109629	24.88471
200	14.53475	3.1195942	0.8660	6.110879	24.85165
201	14.53398	3.1197729	0.8568	6.110898	24.85371
202	14.53348	3.1209863	0.8540	6.110549	24.86471
203	14.53246	3.1235123	0.8540	6.109819	24.88757
204	14.53094	3.1282954	0.8478	6.108396	24.93063
205	14.53024	3.1312123	0.8418	6.107504	24.95674
206	14.53100	3.1317057	0.8508	6.107263	24.96059
207	14.53145	3.1308792	0.8540	6.107490	24.95304
208	14.53050	3.1324274	0.8630	6.107077	24.96727
209	14.52917	3.1341302	0.8691	6.106651	24.98310
210	14.52955	3.1339389	0.8631	6.106675	24.98118
211	14.52993	3.1331739	0.8571	6.106889	24.97420
212	14.52980	3.1318969	0.8510	6.107323	24.96305
213	14.52910	3.1317181	0.8479	6.107454	24.96192
214	14.52898	3.1323041	0.8509	6.107273	24.96716
215	14.52815	3.1329641	0.8570	6.107140	24.97350
216	14.52701	3.1344264	0.8601	6.106774	24.98710
217	14.52600	3.1392899	0.8541	6.105271	25.03056
218	14.52543	3.1424762	0.8572	6.104277	25.05898
219	14.52543	3.1417660	0.8509	6.104512	25.05273
220	14.52524	3.1398579	0.8601	6.105162	25.03605
221	14.52365	3.1380923	0.8601	6.105907	25.02153
222	14.52137	3.1378701	0.8570	6.106214	25.02104
223	14.52004	3.1403643	0.8572	6.105526	25.04386
224	14.52042	3.1422786	0.8601	6.104855	25.06047
225	14.52194	3.1439216	0.8571	6.104157	25.07396
226	14.52264	3.1441501	0.8662	6.104010	25.07552
227	14.52289	3.1465844	0.8663	6.103180	25.09679
228	14.52371	3.1525495	0.8723	6.101125	25.14880
229	14.52454	3.1527598	0.8602	6.100972	25.15013
230	14.52384	3.1528463	0.8571	6.101014	25.15134
231	14.52213	3.1530010	0.8542	6.101138	25.15381
232	14.52010	3.1518261	0.8510	6.101733	25.14477
233	14.51807	3.1507812	0.8511	6.102286	25.13688
234	14.51687	3.1515293	0.8542	6.102162	25.14425
235	14.51573	3.1528773	0.8542	6.101833	25.15686
236	14.51522	3.1540462	0.8572	6.101498	25.16749
237	14.51674	3.1548317	0.8603	6.101084	25.17342
238	14.51877	3.1550420	0.8662	6.100807	25.17396
239	14.52112	3.1543492	0.8723	6.100796	25.16634
240	14.52327	3.1562358	0.8662	6.099953	25.18157
241	14.52352	3.1590635	0.8603	6.098993	25.20632
242	14.52245	3.1589769	0.8572	6.099132	25.20626
243	14.52029	3.1584942	0.8451	6.099511	25.20341
244	14.51845	3.1551286	0.8542	6.100811	25.17493
245	14.51750	3.1483519	0.8512	6.103147	25.11584
246	14.51750	3.1469120	0.8542	6.103622	25.10316
247	14.51845	3.1550667	0.8633	6.100831	25.17439
248	14.52036	3.1585871	0.8664	6.099474	25.20418
249	14.52346	3.1572010	0.8695	6.099615	25.18995
250	14.52581	3.1572195	0.8603	6.099369	25.18860
251	14.52543	3.1578940	0.8573	6.099185	25.19479
252	14.52530	3.1581662	0.8603	6.099108	25.19727
253	14.52479	3.1575351	0.8573	6.099369	25.19204
254	14.52257	3.1568731	0.8482	6.099814	25.18764
255	14.52036	3.1562049	0.8512	6.100261	25.18319
256	14.51934	3.1575042	0.8543	6.099935	25.19529
257	14.51871	3.1541389	0.8603	6.101112	25.16605
258	14.51902	3.1514984	0.8604	6.101952	25.14258
259	14.51966	3.1522156	0.8573	6.101650	25.14849
260	14.51978	3.1527784	0.8634	6.101451	25.15336
261	14.52086	3.1525186	0.8604	6.101427	25.15038
262	14.52289	3.1520672	0.8635	6.101369	25.14509
263	14.52232	3.1522775	0.8543	6.101358	25.14731
264	14.52023	3.1526547	0.8543	6.101447	25.15199
265	14.51953	3.1530257	0.8543	6.101395	25.15571
266	14.51890	3.1539905	0.8575	6.101141	25.16462
267	14.51839	3.1532051	0.8635	6.101453	25.15802
268	14.51833	3.1554008	0.8604	6.100734	25.17741
269	14.51807	3.1570587	0.8605	6.100212	25.19219
270	14.51915	3.1577455	0.8635	6.099875	25.19754
271	14.51890	3.1584324	0.8514	6.099674	25.20376
272	14.51624	3.1605676	0.8483	6.099240	25.22431
273	14.51307	3.1622266	0.8574	6.099015	25.24098
274	14.51180	3.1624247	0.8513	6.099079	25.24355
275	14.51129	3.1631553	0.8605	6.098890	25.25032
276	14.51053	3.1633968	0.8605	6.098887	25.25294
277	14.51072	3.1622576	0.8665	6.099245	25.24278
278	14.51218	3.1660535	0.8636	6.097842	25.27530
279	14.51250	3.1677074	0.8605	6.097263	25.28968
280	14.51307	3.1671313	0.8605	6.097395	25.28423
281	14.51047	3.1667163	0.8485	6.097797	25.28226
282	14.50762	3.1662332	0.8514	6.098247	25.27985
283	14.50616	3.1671066	0.8575	6.098107	25.28850
284	14.50534	3.1652670	0.8544	6.098799	25.27281
285	14.50521	3.1637003	0.8574	6.099330	25.25908
286	14.50572	3.1652670	0.8605	6.098761	25.27256
287	14.50578	3.1668340	0.8605	6.098236	25.28634
288	14.50603	3.1670756	0.8696	6.098131	25.28830
289	14.50743	3.1669827	0.8697	6.098019	25.28658
290	14.50819	3.1678623	0.8575	6.097651	25.29384
291	14.50711	3.1677694	0.8545	6.097791	25.29373
292	14.50578	3.1676517	0.8515	6.097966	25.29355
293	14.50369	3.1675588	0.8545	6.098210	25.29409
294	14.50242	3.1686430	0.8637	6.097981	25.30448
295	14.50204	3.1671686	0.8576	6.098507	25.29172
296	14.50306	3.1662952	0.8545	6.098692	25.28336
297	14.50413	3.1666234	0.8666	6.098474	25.28555
298	14.50470	3.1673172	0.8727	6.098186	25.29130
299	14.50445	3.1687979	0.8667	6.097723	25.30452
300	14.50369	3.1693679	0.8545	6.097612	25.31005
301	14.50344	3.1700000	0.8546	6.097429	25.31579
302	14.50299	3.1701921	0.8577	6.097410	25.31777
303	14.50261	3.1700310	0.8516	6.097502	25.31660
304	14.50268	3.1705763	0.8576	6.097316	25.32137
305	14.50287	3.1711217	0.8545	6.097116	25.32606
306	14.50350	3.1703966	0.8516	6.097291	25.31925
307	14.50445	3.1692812	0.8547	6.097563	25.30879
308	14.50578	3.1694918	0.8606	6.097358	25.30978
309	14.50654	3.1704275	0.8637	6.096971	25.31754
310	14.50648	3.1715121	0.8547	6.096619	25.32715
311	14.50489	3.1716609	0.8547	6.096731	25.32949
312	14.50401	3.1707870	0.8608	6.097110	25.32236
313	14.50420	3.1720266	0.8638	6.096681	25.33317
314	14.50458	3.1722621	0.8698	6.096565	25.33500
315	14.50515	3.1715121	0.8668	6.096755	25.32801
316	14.50559	3.1722373	0.8639	6.096470	25.33412
317	14.50553	3.1735080	0.8608	6.096056	25.34537
318	14.50489	3.1741714	0.8578	6.095901	25.35164
319	14.50407	3.1727518	0.8578	6.096454	25.33965
320	14.50432	3.1685315	0.8578	6.097824	25.30226
321	14.50458	3.1664438	0.8639	6.098488	25.28368
322	14.50508	3.1665925	0.8700	6.098387	25.28466
323	14.50502	3.1685562	0.8670	6.097744	25.30202
324	14.50477	3.1717848	0.8608	6.096703	25.33067
325	14.50464	3.1705763	0.8578	6.097115	25.32009
326	14.50445	3.1671004	0.8549	6.098284	25.28956
327	14.50464	3.1660784	0.8639	6.098602	25.28042
328	14.50439	3.1681288	0.8639	6.097950	25.29866
329	14.50451	3.1722683	0.8580	6.096569	25.33510
330	14.50458	3.1721195	0.8518	6.096612	25.33375
331	14.50470	3.1718778	0.8578	6.096679	25.33153
332	14.50470	3.1717228	0.8609	6.096730	25.33016
333	14.50483	3.1724480	0.8579	6.096477	25.33648
334	14.50496	3.1728448	0.8670	6.096333	25.33989
335	14.50508	3.1728138	0.8669	6.096331	25.33954
336	14.50540	3.1723303	0.8669	6.096458	25.33506
337	14.50565	3.1724170	0.8762	6.096404	25.33566
338	14.50584	3.1734089	0.8700	6.096057	25.34429
339	14.50591	3.1735700	0.8640	6.095997	25.34567
340	14.50654	3.1734460	0.8580	6.095973	25.34417
341	14.50724	3.1724790	0.8549	6.096222	25.33518
342	14.50743	3.1713633	0.8550	6.096571	25.32522
343	14.50755	3.1707560	0.8610	6.096759	25.31978
344	14.50736	3.1706692	0.8550	6.096807	25.31914
345	14.50730	3.1698822	0.8549	6.097074	25.31224
346	14.50724	3.1670446	0.8611	6.098018	25.28725
347	14.50679	3.1661712	0.8640	6.098352	25.27984
348	14.50654	3.1664438	0.8670	6.098288	25.28240
349	14.50610	3.1674101	0.8701	6.098014	25.29121
350	14.50591	3.1682155	0.8730	6.097767	25.29844
351	14.50584	3.1685872	0.8672	6.097650	25.30176
352	14.50553	3.1693060	0.8702	6.097445	25.30830
353	14.50534	3.1697893	0.8641	6.097305	25.31269
354	14.50515	3.1689466	0.8611	6.097602	25.30538
355	14.50496	3.1674101	0.8641	6.098130	25.29196
356	14.50458	3.1658616	0.8672	6.098680	25.27854
357	14.50439	3.1652051	0.8671	6.098917	25.27288
358	14.50407	3.1658987	0.8702	6.098720	25.27920
359	14.50369	3.1675278	0.8582	6.098220	25.29382
360	14.50350	3.1675588	0.8520	6.098229	25.29422
361	14.50306	3.1653166	0.8520	6.099015	25.27473
362	14.50255	3.1650874	0.8521	6.099143	25.27304
363	14.50160	3.1652670	0.8581	6.099181	25.27524
364	14.50040	3.1655705	0.8611	6.099203	25.27870
365	14.49938	3.1663819	0.8643	6.099038	25.28651
366	14.49888	3.1664129	0.8642	6.099080	25.28711
367	14.49850	3.1663695	0.8611	6.099133	25.28698
368	14.49812	3.1664129	0.8672	6.099157	25.28761
369	14.49786	3.1663510	0.8641	6.099203	25.28723
370	14.49748	3.1662333	0.8583	6.099281	25.28644
371	14.49710	3.1661713	0.8642	6.099340	25.28614
372	14.49672	3.1662085	0.8581	6.099367	25.28671
373	14.49622	3.1663200	0.8612	6.099382	25.28803
374	14.49571	3.1662952	0.8550	6.099441	25.28814
375	14.49546	3.1659917	0.8582	6.099568	25.28563
376	14.49527	3.1658988	0.8581	6.099618	25.28493
377	14.49514	3.1656263	0.8671	6.099721	25.28260
378	14.49501	3.1655086	0.8582	6.099773	25.28165
379	14.49489	3.1653910	0.8582	6.099825	25.28070
380	14.49476	3.1652671	0.8644	6.099878	25.27968
381	14.49444	3.1650565	0.8552	6.099980	25.27804
382	14.49413	3.1643939	0.8552	6.100232	25.27240
383	14.49375	3.1639852	0.8553	6.100406	25.26904
384	14.49261	3.1642453	0.8642	6.100436	25.27207
385	14.48906	3.1646355	0.8613	6.100669	25.27782
386	14.48146	3.1647842	0.8643	6.101395	25.28407
387	14.47209	3.1647533	0.8643	6.102362	25.28989
388	14.46380	3.1647224	0.8674	6.103219	25.29501
389	14.45703	3.1649083	0.8704	6.103849	25.30106
390	14.45286	3.1648154	0.8674	6.104306	25.30296
391	14.45355	3.1645430	0.8553	6.104325	25.30010
392	14.45640	3.1644562	0.8553	6.104063	25.29748
393	14.45773	3.1638246	0.8432	6.104136	25.29104
394	14.45608	3.1638556	0.8553	6.104294	25.29238
395	14.45254	3.1633417	0.8523	6.104826	25.29015
396	14.44691	3.1635213	0.8553	6.105342	25.29540
397	14.43762	3.1641840	0.8583	6.106072	25.30731
398	14.42396	3.1655403	0.8614	6.107018	25.32819
399	14.40665	3.1668350	0.8705	6.108358	25.35093
400	14.38953	3.1674547	0.8704	6.109902	25.36759
401	14.37772	3.1678017	0.8645	6.110994	25.37838
402	14.37065	3.1685576	0.8675	6.111466	25.38969
403	14.36453	3.1690658	0.8615	6.111923	25.39819
404	14.35778	3.1697908	0.8614	6.112372	25.40903
405	14.35109	3.1710303	0.8554	6.112643	25.42439
406	14.34403	3.1729332	0.8524	6.112732	25.44588
407	14.33703	3.1755930	0.8585	6.112561	25.47403
408	14.33016	3.1791036	0.8614	6.112094	25.50966
409	14.32404	3.1818957	0.8645	6.111787	25.53844
410	14.31938	3.1817096	0.8675	6.112326	25.53986
411	14.31749	3.1773173	0.8675	6.113985	25.50216
412	14.31862	3.1733488	0.8584	6.115193	25.46623
413	14.31995	3.1726297	0.8556	6.115297	25.45899
414	14.31989	3.1778631	0.8586	6.113558	25.50542
415	14.31875	3.1835031	0.8554	6.111792	25.55618
